 0.000    0.000
 0.100    0.000
 0.200    0.000
 0.300    0.000
 0.400    0.000
 0.500    0.000
 0.600    0.000
 0.700    0.000
 0.800    0.000
 0.900    0.000
 1.000    0.000
 1.100    0.006
 1.200    0.008
 1.300    0.017
 1.400    0.058
 1.500    0.273
 1.600    0.263
 1.700    0.064
 1.800    0.886
 2.100    3.321
 2.200    4.431
 2.300    3.772
 2.400   16.747
 2.500   48.300
 2.600   43.185
 2.700   48.572
 2.800   68.538
 2.900   66.531
 3.000   46.105
 3.100   51.687
 3.200   91.252
 3.300  107.887
 3.400   93.072
 3.500  149.098
 3.600  229.168
 3.700  216.688
 3.800  277.472
 3.900  284.053
 4.000  188.561
 4.100  190.922
 4.200  288.962
 4.300  381.094
 4.400  353.904
 4.500  333.959
 4.600  384.341
 4.700  318.740
 4.800  264.870
 4.900  302.592
 5.000  277.142
 5.100  420.223
 5.200  429.164
 5.300  437.194
 5.400  444.133
 5.500  449.797
 5.600  454.005
 5.700  456.576
 5.800  457.413
 5.900  457.327
 6.000  457.659
 6.100  459.757
 6.200  464.960
 6.300  473.700
 6.400  484.882
 6.500  497.280
 6.600  510.108
 6.700  523.022
 6.800  535.693
 6.900  547.798
 7.000  559.009
 7.100  569.000
 7.200  577.519
 7.300  584.611
 7.400  590.396
 7.500  594.993
 7.600  598.521
 7.700  601.099
 7.800  602.848
 7.900  603.886
 8.000  604.333
 8.100  604.307
 8.200  603.929
 8.300  603.318
 8.400  602.593
 8.500  601.873
 8.600  601.278
 8.700  600.928
 8.800  600.941
 8.900  601.436
 9.000  602.534
 9.100  604.354
 9.200  607.014
 9.300  610.635
 9.400  615.336
 9.500  621.235
 9.600  628.453
 9.700  637.109
 9.800  647.297
 9.900  658.741
10.000  670.879
10.100  683.144
10.200  694.964
10.300  705.773
10.400  715.001
10.500  722.318
10.600  728.360
10.700  734.000
10.800  739.939
10.900  746.182
11.000  752.562
11.100  758.911
11.200  765.063
11.300  770.850
11.400  776.105
11.500  780.660
11.600  784.347
11.700  787.000
11.800  788.504
11.900  788.957
12.000  788.508
12.100  787.307
12.200  785.506
12.300  783.254
12.400  780.702
